Data table for Real componets Re[epsilon] for Argon gas
Re values are multiplied by 1e4 to better display the scale
Energy[eV]	Re*1e4
15.9	0.00142814
15.92	0.00139137
15.94	0.00135857
15.96	0.00132894
15.98	0.00130194
16	0.00127714
16.02	0.00125423
16.04	0.00123293
16.06	0.00121305
16.08	0.0011944
16.1	0.00117684
16.12	0.00116022
16.14	0.00114441
16.16	0.00112933
16.18	0.00111487
16.2	0.00110099
16.22	0.00108761
16.24	0.00107471
16.26	0.00106221
16.28	0.0010501
16.3	0.00103834
16.32	0.00102692
16.34	0.0010158
16.36	0.00100499
16.38	0.000994451
16.4	0.000984182
16.42	0.000974162
16.44	0.000964381
16.46	0.000954822
16.48	0.000945478
16.5	0.00093634
16.52	0.000927399
16.54	0.000918636
16.56	0.000910055
16.58	0.000901639
16.6	0.000893386
16.62	0.000885293
16.64	0.000877346
16.66	0.000869538
16.68	0.000861872
16.7	0.000854336
16.72	0.000846931
16.74	0.000839647
16.76	0.000832484
16.78	0.00082544
16.8	0.000818507
16.82	0.000811682
16.84	0.000804963
16.86	0.000798344
16.88	0.000791821
16.9	0.000785397
16.92	0.000779066
16.94	0.000772817
16.96	0.00076665
16.98	0.000760563
17	0.000754548
17.02	0.000748603
17.04	0.000742718
17.06	0.000736895
17.08	0.000731133
17.1	0.000725421
17.12	0.000719761
17.14	0.000714152
17.16	0.000708598
17.18	0.000703077
17.2	0.000697603
17.22	0.000692186
17.24	0.000686811
17.26	0.000681474
17.28	0.000676181
17.3	0.000670931
17.32	0.000665721
17.34	0.000660555
17.36	0.000655425
17.38	0.00065034
17.4	0.000645293
17.42	0.00064028
17.44	0.000635307
17.46	0.000630371
17.48	0.000625471
17.5	0.000620612
17.52	0.000615786
17.54	0.000610998
17.56	0.000606242
17.58	0.000601526
17.6	0.000596843
17.62	0.000592195
17.64	0.000587585
17.66	0.000583011
17.68	0.000578475
17.7	0.000573981
17.72	0.000569523
17.74	0.000565109
17.76	0.000560731
17.78	0.000556399
17.8	0.000552116
17.82	0.000547873
17.84	0.000543673
17.86	0.000539515
17.88	0.0005354
17.9	0.000531323
17.92	0.000527282
17.94	0.000523274
17.96	0.000519296
17.98	0.000515341
18	0.000511404
18.02	0.000507484
18.04	0.000503573
18.06	0.00049967
18.08	0.000495772
18.1	0.000491879
18.12	0.000487993
18.14	0.000484109
18.16	0.000480229
18.18	0.000476355
18.2	0.000472488
18.22	0.000468638
18.24	0.000464807
18.26	0.000460997
18.28	0.000457217
18.3	0.000453469
18.32	0.000449752
18.34	0.000446072
18.36	0.000442428
18.38	0.000438821
18.4	0.000435251
18.42	0.000431715
18.44	0.000428213
18.46	0.000424743
18.48	0.000421302
18.5	0.000417885
18.52	0.000414493
18.54	0.000411112
18.56	0.000407741
18.58	0.000404377
18.6	0.000401017
18.62	0.000397665
18.64	0.000394313
18.66	0.000390963
18.68	0.000387613
18.7	0.000384266
18.72	0.000380924
18.74	0.000377587
18.76	0.000374205
18.78	0.000370948
18.8	0.000367649
18.82	0.000364372
18.84	0.000361116
18.86	0.000357884
18.88	0.000354679
18.9	0.000351503
18.92	0.000348361
18.94	0.000345245
18.96	0.000342158
18.98	0.000339102
19	0.000336072
19.02	0.000333072
19.04	0.000330093
19.06	0.000327139
19.08	0.000324199
19.1	0.000321273
19.12	0.000318357
19.14	0.000315449
19.16	0.000312545
19.18	0.000309643
19.2	0.000306746
19.22	0.000303849
19.24	0.000300956
19.26	0.000298063
19.28	0.000295173
19.3	0.000292283
19.32	0.000289397
19.34	0.000286516
19.36	0.000283646
19.38	0.000280784
19.4	0.000277934
19.42	0.0002751
19.44	0.000272283
19.46	0.000269491
19.48	0.000266714
19.5	0.000263968
19.52	0.000261238
19.54	0.000258535
19.56	0.000255856
19.58	0.000253193
19.6	0.000250558
19.62	0.000247946
19.64	0.000245364
19.66	0.000242784
19.68	0.000240238
19.7	0.000237703
19.72	0.000235177
19.74	0.000232667
19.76	0.000230169
19.78	0.000227683
19.8	0.000225206
19.82	0.000222732
19.84	0.000220269
19.86	0.000217811
19.88	0.000215362
19.9	0.000212918
19.92	0.000210479
19.94	0.000208047
19.96	0.000205619
19.98	0.000203198
20	0.000200782
20.02	0.000198371
20.04	0.000195968
20.06	0.000193569
20.08	0.000191176
20.1	0.000188789
20.12	0.000186408
20.14	0.000184033
20.16	0.000181664
20.18	0.0001793
20.2	0.000176942
20.22	0.00017459
20.24	0.000172244
20.26	0.000169903
20.28	0.000167569
20.3	0.00016524
20.32	0.000162915
20.34	0.000160598
20.36	0.000158287
20.38	0.000155982
20.4	0.000153682
20.42	0.000151388
20.44	0.000149101
20.46	0.000146816
20.48	0.000144541
20.5	0.00014227
20.52	0.000140006
20.54	0.000137747
20.56	0.000135494
20.58	0.000133248
20.6	0.000131008
20.62	0.000128775
20.64	0.000126548
20.66	0.000124328
20.68	0.000122115
20.7	0.000119908
20.72	0.000117709
20.74	0.000115517
20.76	0.000113332
20.78	0.000111154
20.8	0.000108985
20.82	0.000106823
20.84	0.000104669
20.86	0.000102524
20.88	0.000100387
20.9	9.82601e-05
20.92	9.61417e-05
20.94	9.40334e-05
20.96	9.19353e-05
20.98	8.98475e-05
21	8.7771e-05
21.02	8.57073e-05
21.04	8.36573e-05
21.06	8.16219e-05
21.08	7.9599e-05
21.1	7.7593e-05
21.12	7.5602e-05
21.14	7.3627e-05
21.16	7.16676e-05
21.18	6.97243e-05
21.2	6.77964e-05
21.22	6.58844e-05
21.24	6.39877e-05
21.26	6.2106e-05
21.28	6.02391e-05
21.3	5.83865e-05
21.32	5.65473e-05
21.34	5.47217e-05
21.36	5.29077e-05
21.38	5.11038e-05
21.4	4.93121e-05
21.42	4.75243e-05
21.44	4.57441e-05
21.46	4.39702e-05
21.48	4.21993e-05
21.5	4.04335e-05
21.52	3.86717e-05
21.54	3.69139e-05
21.56	3.51593e-05
21.58	3.34085e-05
21.6	3.16613e-05
21.62	2.99178e-05
21.64	2.81786e-05
21.66	2.64439e-05
21.68	2.47145e-05
21.7	2.29909e-05
21.72	2.12743e-05
21.74	1.95661e-05
21.76	1.78684e-05
21.78	1.61843e-05
21.8	1.45159e-05
21.82	1.28643e-05
21.84	1.12301e-05
21.86	9.61346e-06
21.88	8.0143e-06
21.9	6.4322e-06
21.92	4.86641e-06
21.94	3.31598e-06
21.96	1.7796e-06
21.98	2.55637e-07
22	-1.25785e-06
22.02	-2.7632e-06
22.04	-4.26319e-06
22.06	-5.76119e-06
22.08	-7.26699e-06
22.1	-8.76775e-06
22.12	-1.02814e-05
22.14	-1.18279e-05
22.16	-1.34027e-05
22.18	-1.50252e-05
22.2	-1.67018e-05
22.22	-1.84371e-05
22.24	-2.02332e-05
22.26	-2.20905e-05
22.28	-2.40091e-05
22.3	-2.59857e-05
22.32	-2.80176e-05
22.34	-3.00998e-05
22.36	-3.22264e-05
22.38	-3.43896e-05
22.4	-3.65808e-05
22.42	-3.87888e-05
22.44	-4.10012e-05
22.46	-4.32029e-05
22.48	-4.5376e-05
22.5	-4.74987e-05
22.52	-4.95444e-05
22.54	-5.14772e-05
22.56	-5.32405e-05
22.58	-5.47786e-05
22.6	-5.60596e-05
22.62	-5.70634e-05
22.64	-5.77778e-05
22.66	-5.81932e-05
22.68	-5.83119e-05
22.7	-5.81364e-05
22.72	-5.76752e-05
22.74	-5.69419e-05
22.76	-5.59546e-05
22.78	-5.47356e-05
22.8	-5.33141e-05
22.82	-5.17234e-05
22.84	-5.00037e-05
22.86	-4.82029e-05
22.88	-4.6377e-05
22.9	-4.45926e-05
22.92	-4.29305e-05
22.94	-4.1491e-05
22.96	-4.04074e-05
22.98	-3.98934e-05
23	-4.01565e-05
23.02	-4.1314e-05
23.04	-4.34394e-05
23.06	-4.65755e-05
23.08	-5.07406e-05
23.1	-5.59307e-05
23.12	-6.2121e-05
23.14	-6.92661e-05
23.16	-7.72993e-05
23.18	-8.61317e-05
23.2	-9.56503e-05
23.22	-0.000105711
23.24	-0.000116141
23.26	-0.000126721
23.28	-0.000137176
23.3	-0.000147145
23.32	-0.000156106
23.34	-0.000163117
23.36	-0.000167345
23.38	-0.000168621
23.4	-0.000167327
23.42	-0.00016439
23.44	-0.000160417
23.46	-0.000155772
23.48	-0.000150717
23.5	-0.000145458
23.52	-0.000140158
23.54	-0.000134956
23.56	-0.000129964
23.58	-0.000125272
23.6	-0.000120965
23.62	-0.000117104
23.64	-0.000113743
23.66	-0.000110894
23.68	-0.000108679
23.7	-0.00010703
23.72	-0.000105989
23.74	-0.000105558
23.76	-0.00010573
23.78	-0.000106489
23.8	-0.0001078
23.82	-0.000109623
23.84	-0.000111887
23.86	-0.000114477
23.88	-0.000117283
23.9	-0.000120225
23.92	-0.000123253
23.94	-0.000126318
23.96	-0.000129384
23.98	-0.00013242
24	-0.000135399
24.02	-0.000138297
24.04	-0.000141095
24.06	-0.000143777
24.08	-0.000146327
24.1	-0.000148734
24.12	-0.000150993
24.14	-0.000153093
24.16	-0.000155028
24.18	-0.000156799
24.2	-0.000158407
24.22	-0.000159844
24.24	-0.000161121
24.26	-0.000162248
24.28	-0.000163229
24.3	-0.000164082
24.32	-0.000164828
24.34	-0.000165499
24.36	-0.000166119
24.38	-0.000166702
24.4	-0.000167262
24.42	-0.000167811
24.44	-0.000168355
24.46	-0.000168903
24.48	-0.000169463
24.5	-0.000170037
24.52	-0.000170633
24.54	-0.000171252
24.56	-0.000171919
24.58	-0.000172583
24.6	-0.000173298
24.62	-0.000174046
24.64	-0.000174833
24.66	-0.000175655
24.68	-0.000176513
24.7	-0.000177414
24.72	-0.000178359
24.74	-0.000179316
24.76	-0.000180318
24.78	-0.000181348
24.8	-0.000182404
24.82	-0.000183448
24.84	-0.000184527
24.86	-0.000185651
24.88	-0.000186744
24.9	-0.000187833
24.92	-0.00018892
24.94	-0.000189999
24.96	-0.000191071
24.98	-0.000192136
25	-0.00019319
25.02	-0.000194233
25.04	-0.000195275
25.06	-0.000196283
25.08	-0.000197279
25.1	-0.000198265
25.12	-0.000199236
25.14	-0.000200182
25.16	-0.000201121
25.18	-0.000202045
25.2	-0.000202954
25.22	-0.000203855
25.24	-0.000204723
25.26	-0.000205588
25.28	-0.000206439
25.3	-0.000207277
25.32	-0.000208102
25.34	-0.000208918
25.36	-0.000209724
25.38	-0.000210522
25.4	-0.000211311
25.42	-0.000212087
25.44	-0.000212863
25.46	-0.000213635
25.48	-0.000214403
25.5	-0.000215164
25.52	-0.000215922
25.54	-0.000216675
25.56	-0.000217425
25.58	-0.000218173
25.6	-0.000218917
25.62	-0.000219658
25.64	-0.000220397
25.66	-0.000221134
25.68	-0.000221866
25.7	-0.000222596
25.72	-0.000223325
25.74	-0.000224048
25.76	-0.000224773
25.78	-0.000225495
25.8	-0.000226216
25.82	-0.000226935
25.84	-0.00022765
25.86	-0.000228366
25.88	-0.000229078
25.9	-0.000229789
25.92	-0.0002305
25.94	-0.000231207
25.96	-0.000231911
25.98	-0.000232616
26	-0.000233317
26.02	-0.000234019
26.04	-0.000234718
26.06	-0.000235414
26.08	-0.000236109
26.1	-0.000236803
26.12	-0.000237495
26.14	-0.000238186
26.16	-0.000238874
26.18	-0.000239562
26.2	-0.000240248
26.22	-0.000240933
26.24	-0.000241617
26.26	-0.000242299
26.28	-0.00024298
26.3	-0.000243659
26.32	-0.000244338
26.34	-0.000245015
26.36	-0.000245692
26.38	-0.000246366
26.4	-0.000247041
26.42	-0.000247715
26.44	-0.000248388
26.46	-0.000249059
26.48	-0.000249731
26.5	-0.000250403
26.52	-0.000251073
26.54	-0.000251743
26.56	-0.000252412
26.58	-0.000253082
26.6	-0.000253749
26.62	-0.000254416
26.64	-0.000255081
26.66	-0.000255747
26.68	-0.000256411
26.7	-0.000257075
26.72	-0.000257737
26.74	-0.000258398
26.76	-0.000259056
26.78	-0.000259714
26.8	-0.00026037
26.82	-0.000261023
26.84	-0.000261676
26.86	-0.000262325
26.88	-0.000262972
26.9	-0.000263616
26.92	-0.000264256
26.94	-0.000264893
26.96	-0.000265526
26.98	-0.000266153
27	-0.000266775
27.02	-0.000267392
27.04	-0.000268006
27.06	-0.00026861
27.08	-0.000269209
27.1	-0.000269799
27.12	-0.000270385
27.14	-0.000270963
27.16	-0.000271535
27.18	-0.000272099
27.2	-0.000272655
27.22	-0.000273206
27.24	-0.000273749
27.26	-0.000274286
27.28	-0.000274815
27.3	-0.000275336
27.32	-0.000275851
27.34	-0.00027636
27.36	-0.000276862
27.38	-0.000277357
27.4	-0.000277846
27.42	-0.000278331
27.44	-0.000278808
27.46	-0.000279281
27.48	-0.000279746
27.5	-0.00028021
27.52	-0.000280669
27.54	-0.000281125
27.56	-0.000281578
27.58	-0.000282028
27.6	-0.000282476
27.62	-0.000282923
27.64	-0.000283369
27.66	-0.000283816
27.68	-0.000284263
27.7	-0.000284713
27.72	-0.00028516
27.74	-0.000285609
27.76	-0.00028606
27.78	-0.00028651
27.8	-0.000286964
27.82	-0.000287419
27.84	-0.000287876
27.86	-0.000288334
27.88	-0.000288793
27.9	-0.000289254
27.92	-0.000289716
27.94	-0.00029018
27.96	-0.000290644
27.98	-0.000291111
28	-0.00029158
28.02	-0.000292049
28.04	-0.000292518
28.06	-0.000292987
28.08	-0.000293458
28.1	-0.000293931
28.12	-0.000294401
28.14	-0.000294872
28.16	-0.000295337
28.18	-0.000295804
28.2	-0.000296266
28.22	-0.000296727
28.24	-0.000297184
28.26	-0.000297637
28.28	-0.000298086
28.3	-0.000298529
28.32	-0.000298964
28.34	-0.000299395
28.36	-0.000299821
28.38	-0.000300239
28.4	-0.000300652
28.42	-0.000301062
28.44	-0.000301465
28.46	-0.00030186
28.48	-0.000302244
28.5	-0.000302624
28.52	-0.000302998
28.54	-0.000303365
28.56	-0.000303727
28.58	-0.000304082
28.6	-0.00030443
28.62	-0.000304773
28.64	-0.000305109
28.66	-0.000305439
28.68	-0.000305764
28.7	-0.000306086
28.72	-0.000306394
28.74	-0.0003067
28.76	-0.000307003
28.78	-0.000307302
28.8	-0.000307593
28.82	-0.000307919
28.84	-0.000308171
28.86	-0.000308456
28.88	-0.000308738
28.9	-0.000309018
28.92	-0.000309298
28.94	-0.000309576
28.96	-0.000309855
28.98	-0.000310135
29	-0.000310412
29.02	-0.000310692
29.04	-0.000310973
29.06	-0.000311253
29.08	-0.000311535
29.1	-0.000311816
29.12	-0.0003121
29.14	-0.000312384
29.16	-0.000312669
29.18	-0.000312956
29.2	-0.000313244
29.22	-0.000313533
29.24	-0.000313824
29.26	-0.000314114
29.28	-0.000314408
29.3	-0.000314703
29.32	-0.000314996
29.34	-0.000315293
29.36	-0.00031559
29.38	-0.000315897
29.4	-0.000316194
29.42	-0.000316494
29.44	-0.000316786
29.46	-0.000317087
29.48	-0.000317388
29.5	-0.000317689
29.52	-0.000317988
29.54	-0.000318287
29.56	-0.000318583
29.58	-0.00031888
29.6	-0.000319173
29.62	-0.000319464
29.64	-0.000319754
29.66	-0.000320039
29.68	-0.000320323
29.7	-0.000320603
29.72	-0.000320879
29.74	-0.000321154
29.76	-0.000321427
29.78	-0.000321692
29.8	-0.000321957
29.82	-0.000322216
29.84	-0.000322474
29.86	-0.000322728
29.88	-0.000322976
29.9	-0.000323224
29.92	-0.000323465
29.94	-0.000323704
29.96	-0.000323939
29.98	-0.00032417
30	-0.000324399
30.02	-0.000324621
30.04	-0.000324842
30.06	-0.000325058
30.08	-0.000325265
30.1	-0.000325474
30.12	-0.000325678
30.14	-0.000321665
30.16	-0.000326086
30.18	-0.000326282
30.2	-0.000326474
30.22	-0.000326664
30.24	-0.000326851
30.26	-0.000327036
30.28	-0.000327217
30.3	-0.000327395
30.32	-0.000327573
30.34	-0.000327748
30.36	-0.00032792
30.38	-0.00032809
30.4	-0.000328261
30.42	-0.00032843
30.44	-0.000328597
30.46	-0.000328762
30.48	-0.000328927
30.5	-0.000329089
30.52	-0.000329251
30.54	-0.000329411
30.56	-0.00032957
30.58	-0.000329724
30.6	-0.000329883
30.62	-0.000330038
30.64	-0.000330191
30.66	-0.000330344
30.68	-0.000330495
30.7	-0.000330644
30.72	-0.000330793
30.74	-0.00033094
30.76	-0.000331087
30.78	-0.000331231
30.8	-0.000331376
30.82	-0.000331518
30.84	-0.000331659
30.86	-0.000331802
30.88	-0.00033194
30.9	-0.000332078
30.92	-0.000332213
30.94	-0.000332346
30.96	-0.000332478
30.98	-0.000332608
31	-0.000332736
31.02	-0.000332861
31.04	-0.000332985
31.06	-0.000333107
31.08	-0.000333226
31.1	-0.000333343
31.12	-0.000333458
31.14	-0.000333573
31.16	-0.00033368
31.18	-0.000333787
31.2	-0.000333892
31.22	-0.000333997
31.24	-0.000334095
31.26	-0.000334193
31.28	-0.000334287
31.3	-0.000334377
31.32	-0.000334467
31.34	-0.000334552
31.36	-0.000334636
31.38	-0.00033472
31.4	-0.000334798
31.42	-0.000334869
31.44	-0.000334944
31.46	-0.000335014
31.48	-0.000334716
31.5	-0.000335143
31.52	-0.000335203
31.54	-0.000335263
31.56	-0.000335318
31.58	-0.00033537
31.6	-0.000335418
31.62	-0.000335466
31.64	-0.00033551
31.66	-0.000335552
31.68	-0.000335592
31.7	-0.00033563
31.72	-0.000335663
31.74	-0.000335695
31.76	-0.000335725
31.78	-0.000335752
31.8	-0.000335777
31.82	-0.0003358
31.84	-0.000335821
31.86	-0.00033584
31.88	-0.000335855
31.9	-0.000335871
31.92	-0.000335882
31.94	-0.000335893
31.96	-0.000335903
31.98	-0.000335909
32	-0.000335915
32.02	-0.000335918
32.04	-0.00033592
32.06	-0.000335919
32.08	-0.000335917
32.1	-0.000335914
32.12	-0.000335908
32.14	-0.000335902
32.16	-0.000335891
32.18	-0.000335882
32.2	-0.000335871
32.22	-0.000335857
32.24	-0.000335842
32.26	-0.000335826
32.28	-0.000335808
32.3	-0.000335789
32.32	-0.000335766
32.34	-0.000335743
32.36	-0.000335719
32.38	-0.000335694
32.4	-0.000335666
32.42	-0.000335755
32.44	-0.000335722
32.46	-0.000335689
32.48	-0.000335539
32.5	-0.000335504
32.52	-0.000335465
32.54	-0.000335427
32.56	-0.000335387
32.58	-0.000335344
32.6	-0.000335302
32.62	-0.000335254
32.64	-0.000335209
32.66	-0.000335159
32.68	-0.000335107
32.7	-0.000335054
32.72	-0.000334999
32.74	-0.000334942
32.76	-0.000334885
32.78	-0.000334823
32.8	-0.000334763
32.82	-0.000334699
32.84	-0.000334632
32.86	-0.000334564
32.88	-0.000334492
32.9	-0.000334419
32.92	-0.000334347
32.94	-0.000334271
32.96	-0.000334194
32.98	-0.000334111
33	-0.00033403
33.02	-0.000333945
33.04	-0.00033386
33.06	-0.000333773
33.08	-0.000333682
33.1	-0.00033359
33.12	-0.000333497
33.14	-0.000333402
33.16	-0.000333304
33.18	-0.000333205
33.2	-0.000333091
33.22	-0.000332999
33.24	-0.000332897
33.26	-0.000332791
33.28	-0.00033268
33.3	-0.00033257
33.32	-0.000332459
33.34	-0.000332345
33.36	-0.000332232
33.38	-0.000331868
33.4	-0.000331997
33.42	-0.000331878
33.44	-0.000331757
33.46	-0.000331636
33.48	-0.000331511
33.5	-0.000331386
33.52	-0.000331259
33.54	-0.000331132
33.56	-0.000331003
33.58	-0.000330874
33.6	-0.000330743
33.62	-0.000330615
33.64	-0.000330483
33.66	-0.00033035
33.68	-0.000330217
33.7	-0.000330081
33.72	-0.000329947
33.74	-0.00032981
33.76	-0.000329674
33.78	-0.000329537
33.8	-0.000329399
33.82	-0.000329261
33.84	-0.000329122
33.86	-0.000328983
33.88	-0.000328844
33.9	-0.000328702
33.92	-0.000328562
33.94	-0.00032842
33.96	-0.000328279
33.98	-0.000328135
34	-0.000327993
34.02	-0.000327848
34.04	-0.000327704
34.06	-0.000327559
34.08	-0.000327413
34.1	-0.000327268
34.12	-0.000327121
34.14	-0.000326973
34.16	-0.000326824
34.18	-0.000326673
34.2	-0.000326521
34.22	-0.000326373
34.24	-0.00032622
34.26	-0.000326066
34.28	-0.000325911
34.3	-0.000325753
34.32	-0.000325597
34.34	-0.000325439
34.36	-0.00032528
34.38	-0.00032512
34.4	-0.000324958
34.42	-0.000324795
34.44	-0.000324626
34.46	-0.000325172
34.48	-0.000324284
34.5	-0.00032411
34.52	-0.000323934
34.54	-0.000323758
34.56	-0.000323579
34.58	-0.000323397
34.6	-0.000323213
34.62	-0.000323028
34.64	-0.000322842
34.66	-0.000322695
34.68	-0.000322506
34.7	-0.000322313
34.72	-0.000322119
34.74	-0.000321922
34.76	-0.000321723
34.78	-0.00032152
34.8	-0.000321315
34.82	-0.000321107
34.84	-0.000320895
34.86	-0.000320684
34.88	-0.000320463
34.9	-0.000320244
34.92	-0.000320022
34.94	-0.000319796
34.96	-0.000319569
34.98	-0.000319337
35	-0.000319102
35.02	-0.000318865
35.04	-0.000318624
35.06	-0.000318379
35.08	-0.000318131
35.1	-0.000317882
35.12	-0.000317627
35.14	-0.000317369
35.16	-0.000317109
35.18	-0.000316843
35.2	-0.000316575
35.22	-0.000316303
35.24	-0.000316029
35.26	-0.00031575
35.28	-0.000315469
35.3	-0.000315182
35.32	-0.00031489
35.34	-0.000314597
35.36	-0.000314298
35.38	-0.000313993
35.4	-0.000313687
35.42	-0.000313374
35.44	-0.000313057
35.46	-0.000312733
35.48	-0.000312406
35.5	-0.000312072
35.52	-0.000311735
35.54	-0.000311394
35.56	-0.000311046
35.58	-0.000310694
35.6	-0.000310329
35.62	-0.000309976
35.64	-0.000309607
35.66	-0.000309233
35.68	-0.000308855
35.7	-0.000308472
35.72	-0.00030808
35.74	-0.000307687
35.76	-0.000307287
35.78	-0.000306881
35.8	-0.000306469
35.82	-0.000306054
35.84	-0.000305631
35.86	-0.000305205
35.88	-0.000304773
35.9	-0.000304337
35.92	-0.000303895
35.94	-0.000303447
35.96	-0.000302996
35.98	-0.00030254
36	-0.000302076
36.02	-0.000301614
36.04	-0.000301137
36.06	-0.000300662
36.08	-0.000300183
36.1	-0.000299699
36.12	-0.000299208
36.14	-0.000298713
36.16	-0.000298215
36.18	-0.000297714
36.2	-0.000297208
36.22	-0.000296699
36.24	-0.000296185
36.26	-0.000295669
36.28	-0.000295146
36.3	-0.000294622
36.32	-0.000294095
36.34	-0.000293569
36.36	-0.000292897
36.38	-0.000292501
36.4	-0.000291965
36.42	-0.000291426
36.44	-0.000290885
36.46	-0.000290343
36.48	-0.000289808
36.5	-0.00028926
36.52	-0.000288717
36.54	-0.000288173
36.56	-0.000287631
36.58	-0.000287088
36.6	-0.000286548
36.62	-0.000286008
36.64	-0.00028547
36.66	-0.000284931
36.68	-0.000284396
36.7	-0.00028386
36.72	-0.000283328
36.74	-0.000282798
36.76	-0.000282269
36.78	-0.000281743
36.8	-0.000281218
36.82	-0.000280697
36.84	-0.000280178
36.86	-0.00027966
36.88	-0.000279145
36.9	-0.000278635
36.92	-0.000278125
36.94	-0.000277619
36.96	-0.000277116
36.98	-0.000276615
37	-0.000276117
37.02	-0.000275623
37.04	-0.000275131
37.06	-0.000274643
37.08	-0.000274156
37.1	-0.000273673
37.12	-0.000273195
37.14	-0.000272718
37.16	-0.000272245
37.18	-0.000271774
37.2	-0.000271308
37.22	-0.000270844
37.24	-0.000270383
37.26	-0.000269923
37.28	-0.000269469
37.3	-0.000269017
37.32	-0.00026857
37.34	-0.000268125
37.36	-0.000267682
37.38	-0.000267242
37.4	-0.000266804
37.42	-0.00026637
37.44	-0.000265939
37.46	-0.000265509
37.48	-0.000265083
37.5	-0.000264659
